epoch,lr-AdamW,step,train/loss_epoch,train/loss_step,val/loss,val/mae,val/mse
,0.01,0,,,,,
0,,19,,0.24630501866340637,,,
0,,39,,0.23608791828155518,,,
0,,45,,,0.24222958087921143,0.1256655901670456,0.06256578117609024
0,,45,0.35031259059906006,,,,
,0.01,46,,,,,
1,,59,,0.237193301320076,,,
1,,79,,0.23082202672958374,,,
1,,91,,,0.21493922173976898,0.12089140713214874,0.05191942676901817
1,,91,0.22936950623989105,,,,
,0.01,92,,,,,
2,,99,,0.20302194356918335,,,
2,,119,,0.2038343846797943,,,
2,,137,,,0.1941731870174408,0.13031065464019775,0.067744180560112
2,,137,0.20204873383045197,,,,
,0.01,138,,,,,
3,,139,,0.19729267060756683,,,
3,,159,,0.18504634499549866,,,
3,,179,,0.14407320320606232,,,
3,,183,,,0.17520377039909363,0.10924750566482544,0.07430616021156311
3,,183,0.17238621413707733,,,,
,0.01,184,,,,,
4,,199,,0.14719122648239136,,,
4,,219,,0.12667781114578247,,,
4,,229,,,0.13529765605926514,0.08030689507722855,0.03934956714510918
4,,229,0.14117954671382904,,,,
,0.01,230,,,,,
5,,239,,0.13409315049648285,,,
5,,259,,0.1212897002696991,,,
5,,275,,,0.12346087396144867,0.07338647544384003,0.04137977212667465
5,,275,0.1268235743045807,,,,
,0.01,276,,,,,
6,,279,,0.11494186520576477,,,
6,,299,,0.11971156299114227,,,
6,,319,,0.11254623532295227,,,
6,,321,,,0.11572948843240738,0.06482227146625519,0.025851117447018623
6,,321,0.1193026751279831,,,,
,0.01,322,,,,,
7,,339,,0.09714875370264053,,,
7,,359,,0.1279442310333252,,,
7,,367,,,0.10803376883268356,0.05904600769281387,0.023868095129728317
7,,367,0.1128314733505249,,,,
,0.01,368,,,,,
8,,379,,0.10326606780290604,,,
8,,399,,0.11564664542675018,,,
8,,413,,,0.10868558287620544,0.05973362922668457,0.022098012268543243
8,,413,0.1139088049530983,,,,
,0.01,414,,,,,
9,,419,,0.11055590957403183,,,
9,,439,,0.11106178164482117,,,
9,,459,,0.10265476256608963,,,
9,,459,,,0.10724632441997528,0.056322842836380005,0.0161842443048954
9,,459,0.10448108613491058,,,,
,0.01,460,,,,,
10,,479,,0.09657517820596695,,,
10,,499,,0.10179203748703003,,,
10,,505,,,0.12494742125272751,0.06509562581777573,0.023817207664251328
10,,505,0.09888006746768951,,,,
,0.01,506,,,,,
11,,519,,0.09989919513463974,,,
11,,539,,0.09604315459728241,,,
11,,551,,,0.08823571354150772,0.04272730275988579,0.008427295833826065
11,,551,0.09742424637079239,,,,
,0.01,552,,,,,
12,,559,,0.09112484008073807,,,
12,,579,,0.07840324938297272,,,
12,,597,,,0.09467003494501114,0.04339463263750076,0.009543162770569324
12,,597,0.08886870741844177,,,,
,0.01,598,,,,,
13,,599,,0.08417586982250214,,,
13,,619,,0.08434291183948517,,,
13,,639,,0.07794138044118881,,,
13,,643,,,0.09408670663833618,0.050552088767290115,0.008858626708388329
13,,643,0.08202823996543884,,,,
,0.01,644,,,,,
14,,659,,0.06909332424402237,,,
14,,679,,0.07587577402591705,,,
14,,689,,,0.07755427807569504,0.03670080751180649,0.005684699397534132
14,,689,0.07807107269763947,,,,
,0.01,690,,,,,
15,,699,,0.06986917555332184,,,
15,,719,,0.07384025305509567,,,
15,,735,,,0.08066149801015854,0.03821445629000664,0.005848558619618416
15,,735,0.07798167318105698,,,,
,0.01,736,,,,,
16,,739,,0.08338378369808197,,,
16,,759,,0.07220353186130524,,,
16,,779,,0.07553354650735855,,,
16,,781,,,0.08060446381568909,0.040423449128866196,0.005876915529370308
16,,781,0.0781659409403801,,,,
,0.01,782,,,,,
17,,799,,0.0810905396938324,,,
17,,819,,0.06682763993740082,,,
17,,827,,,0.07757174968719482,0.03907126933336258,0.0045547522604465485
17,,827,0.07779126614332199,,,,
,0.01,828,,,,,
18,,839,,0.06174599379301071,,,
18,,859,,0.07836994528770447,,,
18,,873,,,0.069603331387043,0.03311118483543396,0.004490404389798641
18,,873,0.0740392655134201,,,,
,0.01,874,,,,,
19,,879,,0.0713951513171196,,,
19,,899,,0.07914434373378754,,,
19,,919,,0.07186003029346466,,,
19,,919,,,0.0753210112452507,0.03694924712181091,0.005216679535806179
19,,919,0.07212494313716888,,,,
,0.01,920,,,,,
20,,939,,0.06733784079551697,,,
20,,959,,0.08445293456315994,,,
20,,965,,,0.07949595898389816,0.03775297477841377,0.004929910413920879
20,,965,0.0730263814330101,,,,
,0.01,966,,,,,
21,,979,,0.07628028094768524,,,
21,,999,,0.0683247521519661,,,
21,,1011,,,0.07783763110637665,0.03753209859132767,0.0052232262678444386
21,,1011,0.07393844425678253,,,,
,0.01,1012,,,,,
22,,1019,,0.07052412629127502,,,
22,,1039,,0.06805522739887238,,,
22,,1057,,,0.07073049992322922,0.033258579671382904,0.003700876608490944
22,,1057,0.07003097236156464,,,,
,0.01,1058,,,,,
23,,1059,,0.08364391326904297,,,
23,,1079,,0.07301612198352814,,,
23,,1099,,0.06899425387382507,,,
23,,1103,,,0.0841628685593605,0.037792958319187164,0.005222303327172995
23,,1103,0.07057510316371918,,,,
,0.01,1104,,,,,
24,,1119,,0.07327166199684143,,,
24,,1139,,0.06609432399272919,,,
24,,1149,,,0.06398950517177582,0.02851713076233864,0.00309566268697381
24,,1149,0.0665806382894516,,,,
,0.01,1150,,,,,
25,,1159,,0.07536473870277405,,,
25,,1179,,0.0682535171508789,,,
25,,1195,,,0.08085010200738907,0.03719654679298401,0.006248235236853361
25,,1195,0.06850182265043259,,,,
,0.01,1196,,,,,
26,,1199,,0.06353320181369781,,,
26,,1219,,0.06057628244161606,,,
26,,1239,,0.06669628620147705,,,
26,,1241,,,0.06750216335058212,0.02975127100944519,0.003731143893674016
26,,1241,0.06864485889673233,,,,
,0.01,1242,,,,,
27,,1259,,0.07039472460746765,,,
27,,1279,,0.07055073231458664,,,
27,,1287,,,0.06282409280538559,0.02723238617181778,0.00324772740714252
27,,1287,0.06478996574878693,,,,
,0.01,1288,,,,,
28,,1299,,0.053531453013420105,,,
28,,1319,,0.06645043194293976,,,
28,,1333,,,0.08086611330509186,0.039850760251283646,0.00453597167506814
28,,1333,0.0640624538064003,,,,
,0.01,1334,,,,,
29,,1339,,0.060334984213113785,,,
29,,1359,,0.06195487827062607,,,
29,,1379,,0.05991508811712265,,,
29,,1379,,,0.0645235925912857,0.03037879429757595,0.0030527787748724222
29,,1379,0.06499508768320084,,,,
,0.01,1380,,,,,
30,,1399,,0.07127693295478821,,,
30,,1419,,0.05769827216863632,,,
30,,1425,,,0.058778177946805954,0.025505399331450462,0.002541793743148446
30,,1425,0.06359653174877167,,,,
,0.01,1426,,,,,
31,,1439,,0.06073429435491562,,,
31,,1459,,0.08757171034812927,,,
31,,1471,,,0.05856071040034294,0.02568444050848484,0.002876575570553541
31,,1471,0.06497927010059357,,,,
,0.01,1472,,,,,
32,,1479,,0.06349901854991913,,,
32,,1499,,0.06272129714488983,,,
32,,1517,,,0.05716095119714737,0.02500000223517418,0.002449576510116458
32,,1517,0.06393937021493912,,,,
,0.01,1518,,,,,
33,,1519,,0.06384683400392532,,,
33,,1539,,0.06579025834798813,,,
33,,1559,,0.05564878508448601,,,
33,,1563,,,0.05411006137728691,0.02386445924639702,0.0024393752682954073
33,,1563,0.06003144383430481,,,,
,0.01,1564,,,,,
34,,1579,,0.05819777026772499,,,
34,,1599,,0.07213316112756729,,,
34,,1609,,,0.08081825077533722,0.03469925373792648,0.005787028465420008
34,,1609,0.06288804858922958,,,,
,0.01,1610,,,,,
35,,1619,,0.059334661811590195,,,
35,,1639,,0.06583701819181442,,,
35,,1655,,,0.052805811166763306,0.023817557841539383,0.0025140796788036823
35,,1655,0.06267189979553223,,,,
,0.01,1656,,,,,
36,,1659,,0.0513664186000824,,,
36,,1679,,0.055746130645275116,,,
36,,1699,,0.0572909377515316,,,
36,,1701,,,0.06649725884199142,0.027841532602906227,0.0033752743620425463
36,,1701,0.05837973207235336,,,,
,0.01,1702,,,,,
37,,1719,,0.058980878442525864,,,
37,,1739,,0.06869582831859589,,,
37,,1747,,,0.06676773726940155,0.03257209435105324,0.0029260071460157633
37,,1747,0.05990002304315567,,,,
,0.01,1748,,,,,
38,,1759,,0.05499815195798874,,,
38,,1779,,0.055320896208286285,,,
38,,1793,,,0.05478573963046074,0.022579606622457504,0.0022402494214475155
38,,1793,0.0598965659737587,,,,
,0.01,1794,,,,,
39,,1799,,0.05423039197921753,,,
39,,1819,,0.05475957691669464,,,
39,,1839,,0.05342467874288559,,,
39,,1839,,,0.05765903741121292,0.025558751076459885,0.0022594742476940155
39,,1839,0.058973975479602814,,,,
,0.01,1840,,,,,
40,,1859,,0.058497413992881775,,,
40,,1879,,0.05663393437862396,,,
40,,1885,,,0.05907466635107994,0.025679567828774452,0.002588342409580946
40,,1885,0.05761873349547386,,,,
,0.01,1886,,,,,
41,,1899,,0.06111820787191391,,,
41,,1919,,0.05634435638785362,,,
41,,1931,,,0.06267262995243073,0.027836794033646584,0.0023768586106598377
41,,1931,0.05820022150874138,,,,
,0.005,1932,,,,,
42,,1939,,0.04938888922333717,,,
42,,1959,,0.04891554266214371,,,
42,,1977,,,0.05020863935351372,0.021368373185396194,0.0016940322238951921
42,,1977,0.054064709693193436,,,,
,0.005,1978,,,,,
43,,1979,,0.04936319589614868,,,
43,,1999,,0.047748737037181854,,,
43,,2019,,0.042450759559869766,,,
43,,2023,,,0.05160387232899666,0.020206263288855553,0.0018373593920841813
43,,2023,0.05172261968255043,,,,
,0.005,2024,,,,,
44,,2039,,0.057910528033971786,,,
44,,2059,,0.05403272435069084,,,
44,,2069,,,0.049628764390945435,0.020592372864484787,0.001712338998913765
44,,2069,0.052072323858737946,,,,
,0.005,2070,,,,,
45,,2079,,0.05481589958071709,,,
45,,2099,,0.0720086619257927,,,
45,,2115,,,0.053945787250995636,0.022957082837820053,0.0018962087342515588
45,,2115,0.052870169281959534,,,,
,0.005,2116,,,,,
46,,2119,,0.051265496760606766,,,
46,,2139,,0.05344824492931366,,,
46,,2159,,0.04771745577454567,,,
46,,2161,,,0.05202445015311241,0.02114666998386383,0.002099127508699894
46,,2161,0.05371936038136482,,,,
,0.005,2162,,,,,
47,,2179,,0.053767308592796326,,,
47,,2199,,0.050029218196868896,,,
47,,2207,,,0.05446481704711914,0.02369222603738308,0.002073997864499688
47,,2207,0.05231999233365059,,,,
,0.005,2208,,,,,
48,,2219,,0.049096301198005676,,,
48,,2239,,0.05032060667872429,,,
48,,2253,,,0.047818753868341446,0.01964893564581871,0.0017198490677401423
48,,2253,0.05276018753647804,,,,
,0.005,2254,,,,,
49,,2259,,0.05459357425570488,,,
49,,2279,,0.05759303271770477,,,
49,,2299,,0.0511045902967453,,,
49,,2299,,,0.05820770934224129,0.023772237822413445,0.0022374484688043594
49,,2299,0.05201952904462814,,,,
,0.005,2300,,,,,
50,,2319,,0.051817312836647034,,,
50,,2339,,0.04845145717263222,,,
50,,2345,,,0.05089176818728447,0.020715417340397835,0.0017564513254910707
50,,2345,0.05172036588191986,,,,
,0.005,2346,,,,,
51,,2359,,0.046141304075717926,,,
51,,2379,,0.0492517426609993,,,
51,,2391,,,0.045244600623846054,0.018550559878349304,0.001467684400267899
51,,2391,0.051725972443819046,,,,
,0.005,2392,,,,,
52,,2399,,0.050031132996082306,,,
52,,2419,,0.048880480229854584,,,
52,,2437,,,0.04994577541947365,0.020523419603705406,0.0016128466231748462
52,,2437,0.05033397674560547,,,,
,0.005,2438,,,,,
53,,2439,,0.05652918666601181,,,
53,,2459,,0.04924503341317177,,,
53,,2479,,0.05506439507007599,,,
53,,2483,,,0.05169229954481125,0.02093113213777542,0.0017769115511327982
53,,2483,0.05406453460454941,,,,
,0.005,2484,,,,,
54,,2499,,0.04357699304819107,,,
54,,2519,,0.050452928990125656,,,
54,,2529,,,0.049580398947000504,0.020695069804787636,0.0016062925569713116
54,,2529,0.053350236266851425,,,,
,0.005,2530,,,,,
55,,2539,,0.05313952639698982,,,
55,,2559,,0.047462355345487595,,,
55,,2575,,,0.052738435566425323,0.02119213342666626,0.0017093510832637548
55,,2575,0.05079370737075806,,,,
,0.005,2576,,,,,
56,,2579,,0.06727340817451477,,,
56,,2599,,0.05815861001610756,,,
56,,2619,,0.04728563129901886,,,
56,,2621,,,0.05581238493323326,0.02374253049492836,0.0021597116719931364
56,,2621,0.0545266754925251,,,,
,0.005,2622,,,,,
57,,2639,,0.048980988562107086,,,
57,,2659,,0.06117454916238785,,,
57,,2667,,,0.050568439066410065,0.021714400500059128,0.001655489788390696
57,,2667,0.05095396563410759,,,,
,0.0025,2668,,,,,
58,,2679,,0.04264872521162033,,,
58,,2699,,0.04339681938290596,,,
58,,2713,,,0.046287957578897476,0.01901824213564396,0.0014647722709923983
58,,2713,0.05007190629839897,,,,
,0.0025,2714,,,,,
59,,2719,,0.03994210436940193,,,
59,,2739,,0.042142949998378754,,,
59,,2759,,0.04877251759171486,,,
59,,2759,,,0.042465370148420334,0.017249828204512596,0.0012529698433354497
59,,2759,0.048539500683546066,,,,
,0.0025,2760,,,,,
60,,2779,,0.04210531339049339,,,
60,,2799,,0.04708133637905121,,,
60,,2805,,,0.04888872429728508,0.01961301639676094,0.0014149924973025918
60,,2805,0.04803677275776863,,,,
,0.0025,2806,,,,,
61,,2819,,0.05091003701090813,,,
61,,2839,,0.047669097781181335,,,
61,,2851,,,0.04403840750455856,0.01756308041512966,0.001265340601094067
61,,2851,0.047413092106580734,,,,
,0.0025,2852,,,,,
62,,2859,,0.046131283044815063,,,
62,,2879,,0.04624174162745476,,,
62,,2897,,,0.04431814327836037,0.0186812411993742,0.001359839690849185
62,,2897,0.04818163812160492,,,,
,0.0025,2898,,,,,
63,,2899,,0.04551847279071808,,,
63,,2919,,0.04588007926940918,,,
63,,2939,,0.04248449578881264,,,
63,,2943,,,0.04411649703979492,0.01811639405786991,0.0013476306339725852
63,,2943,0.04719674587249756,,,,
,0.0025,2944,,,,,
64,,2959,,0.0375591404736042,,,
64,,2979,,0.04629553109407425,,,
64,,2989,,,0.06132272630929947,0.026674946770071983,0.0021214266307651997
64,,2989,0.04656238108873367,,,,
,0.0025,2990,,,,,
65,,2999,,0.05743754282593727,,,
65,,3019,,0.04580015316605568,,,
65,,3035,,,0.04478295147418976,0.018446752801537514,0.0013335647527128458
65,,3035,0.04757894575595856,,,,
,0.00125,3036,,,,,
66,,3039,,0.049164049327373505,,,
66,,3059,,0.0383090078830719,,,
66,,3079,,0.042541246861219406,,,
66,,3081,,,0.04286915063858032,0.017193326726555824,0.0012858414556831121
66,,3081,0.04547162353992462,,,,
,0.00125,3082,,,,,
67,,3099,,0.04388886317610741,,,
67,,3119,,0.04251421242952347,,,
67,,3127,,,0.04909256473183632,0.01904739998281002,0.0014222812606021762
67,,3127,0.045305363833904266,,,,
,0.00125,3128,,,,,
68,,3139,,0.052067726850509644,,,
68,,3159,,0.04658859595656395,,,
68,,3173,,,0.04341335594654083,0.01775687001645565,0.0012868341291323304
68,,3173,0.04575740173459053,,,,
,0.00125,3174,,,,,
69,,3179,,0.04457004740834236,,,
69,,3199,,0.04032239317893982,,,
69,,3219,,0.04332558810710907,,,
69,,3219,,,0.04807513207197189,0.019185040146112442,0.0013400701573118567
69,,3219,0.04436526447534561,,,,
